freq Xk_re Xk_im Xk_mag Xk_err
2.225e+07 0.0832811 -0.548082 0.554374 -0.9912
2.226e+07 0.0798246 -0.473684 0.480363 -0.992375
2.227e+07 0.0736875 -0.398296 0.405055 -0.993571
2.228e+07 0.0648708 -0.322051 0.32852 -0.994785
2.229e+07 0.05338 -0.245084 0.250829 -0.996019
2.23e+07 0.0392254 -0.167529 0.172059 -0.997269
2.231e+07 0.022422 -0.0895232 0.0922884 -0.998535
2.232e+07 0.00298937 -0.0112056 0.0115975 -0.999816
2.233e+07 -0.0190483 0.0672852 0.0699296 -0.99889
2.234e+07 -0.0436622 0.14581 0.152207 -0.997584
2.235e+07 -0.0708188 0.224229 0.235146 -0.996268
2.236e+07 -0.10048 0.302401 0.318658 -0.994942
2.237e+07 -0.132605 0.380189 0.402651 -0.993609
2.238e+07 -0.167145 0.457451 0.487031 -0.992269
2.239e+07 -0.20405 0.53405 0.571704 -0.990925
2.24e+07 -0.243264 0.609847 0.656575 -0.989578
2.241e+07 -0.284728 0.684707 0.741548 -0.988229
2.242e+07 -0.328379 0.758493 0.826526 -0.986881
2.243e+07 -0.374149 0.831072 0.911411 -0.985533
2.244e+07 -0.421967 0.902314 0.996106 -0.984189
2.245e+07 -0.471757 0.972087 1.08051 -0.982849
2.246e+07 -0.523442 1.04027 1.16454 -0.981515
2.247e+07 -0.576938 1.10672 1.24808 -0.980189
2.248e+07 -0.63216 1.17134 1.33104 -0.978872
2.249e+07 -0.689019 1.234 1.41333 -0.977566
2.25e+07 -0.747425 1.29458 1.49485 -0.976272
2.251e+07 -0.807281 1.35297 1.57551 -0.974992
2.252e+07 -0.86849 1.40907 1.65522 -0.973727
2.253e+07 -0.930953 1.46276 1.73388 -0.972478
2.254e+07 -0.994566 1.51396 1.81141 -0.971247
2.255e+07 -1.05923 1.56255 1.88773 -0.970036
2.256e+07 -1.12482 1.60846 1.96275 -0.968845
2.257e+07 -1.19125 1.65159 2.03638 -0.967677
2.258e+07 -1.2584 1.69186 2.10855 -0.966531
2.259e+07 -1.32616 1.7292 2.17918 -0.96541
2.26e+07 -1.39441 1.76352 2.2482 -0.964314
2.261e+07 -1.46304 1.79477 2.31553 -0.963245
2.262e+07 -1.53194 1.82288 2.38112 -0.962204
2.263e+07 -1.60099 1.8478 2.4449 -0.961192
2.264e+07 -1.67006 1.86947 2.5068 -0.96021
2.265e+07 -1.73906 1.88785 2.56677 -0.959258
2.266e+07 -1.80785 1.9029 2.62476 -0.958337
2.267e+07 -1.87632 1.91459 2.68071 -0.957449
2.268e+07 -1.94436 1.92288 2.73459 -0.956594
2.269e+07 -2.01184 1.92776 2.78635 -0.955772
2.27e+07 -2.07866 1.92922 2.83596 -0.954985
2.271e+07 -2.14469 1.92723 2.88338 -0.954232
2.272e+07 -2.20983 1.9218 2.92859 -0.953514
2.273e+07 -2.27396 1.91293 2.97156 -0.952832
2.274e+07 -2.33696 1.90063 3.01228 -0.952186
2.275e+07 -2.39875 1.88492 3.05072 -0.951576
2.276e+07 -2.45919 1.86581 3.08688 -0.951002
2.277e+07 -2.51819 1.84333 3.12076 -0.950464
2.278e+07 -2.57565 1.81751 3.15235 -0.949963
2.279e+07 -2.63146 1.7884 3.18166 -0.949497
2.28e+07 -2.68554 1.75604 3.2087 -0.949068
2.281e+07 -2.73777 1.72048 3.23348 -0.948675
2.282e+07 -2.78807 1.68177 3.25602 -0.948317
2.283e+07 -2.83635 1.63998 3.27635 -0.947995
2.284e+07 -2.88253 1.59518 3.29448 -0.947707
2.285e+07 -2.92652 1.54744 3.31045 -0.947453
2.286e+07 -2.96825 1.49684 3.32431 -0.947233
2.287e+07 -3.00764 1.44346 3.33608 -0.947046
2.288e+07 -3.04461 1.38739 3.34582 -0.946892
2.289e+07 -3.0791 1.32873 3.35356 -0.946769
2.29e+07 -3.11106 1.26757 3.35938 -0.946677
2.291e+07 -3.14041 1.20402 3.36331 -0.946614
2.292e+07 -3.16711 1.13819 3.36542 -0.946581
2.293e+07 -3.19111 1.07019 3.36578 -0.946575
2.294e+07 -3.21236 1.00014 3.36445 -0.946596
2.295e+07 -3.23081 0.928152 3.36149 -0.946643
2.296e+07 -3.24645 0.854354 3.35699 -0.946715
2.297e+07 -3.25923 0.778874 3.351 -0.946809
2.298e+07 -3.26913 0.701844 3.34362 -0.946927
2.299e+07 -3.27612 0.623396 3.33491 -0.947065
2.3e+07 -3.2802 0.543667 3.32495 -0.947223
2.301e+07 -3.28136 0.462797 3.31383 -0.9474
2.302e+07 -3.27957 0.380927 3.30162 -0.947593
2.303e+07 -3.27486 0.298201 3.28841 -0.947803
2.304e+07 -3.26721 0.214765 3.27426 -0.948028
2.305e+07 -3.25664 0.130765 3.25927 -0.948266
2.306e+07 -3.24317 0.0463496 3.2435 -0.948516
2.307e+07 -3.22682 -0.0383314 3.22704 -0.948777
2.308e+07 -3.2076 -0.123128 3.20996 -0.949048
2.309e+07 -3.18555 -0.207889 3.19233 -0.949328
2.31e+07 -3.16071 -0.292464 3.17422 -0.949616
2.311e+07 -3.13312 -0.376702 3.15568 -0.94991
2.312e+07 -3.10281 -0.460451 3.13679 -0.95021
2.313e+07 -3.06985 -0.543562 3.1176 -0.950514
2.314e+07 -3.03428 -0.625886 3.09816 -0.950823
2.315e+07 -2.99616 -0.707273 3.07851 -0.951135
2.316e+07 -2.95557 -0.787578 3.0587 -0.951449
2.317e+07 -2.91256 -0.866654 3.03876 -0.951766
2.318e+07 -2.86721 -0.944358 3.01873 -0.952084
2.319e+07 -2.8196 -1.02055 2.99861 -0.952403
2.32e+07 -2.76981 -1.09509 2.97843 -0.952723
2.321e+07 -2.71792 -1.16784 2.95819 -0.953045
2.322e+07 -2.66402 -1.23866 2.93791 -0.953367
2.323e+07 -2.60821 -1.30744 2.91756 -0.953689
2.324e+07 -2.55059 -1.37403 2.89715 -0.954014
2.325e+07 -2.49125 -1.43832 2.87664 -0.954339
2.326e+07 -2.43029 -1.50019 2.85603 -0.954666
2.327e+07 -2.36783 -1.55952 2.83526 -0.954996
2.328e+07 -2.30397 -1.6162 2.81432 -0.955328
2.329e+07 -2.23882 -1.67012 2.79314 -0.955664
2.33e+07 -2.17251 -1.72119 2.77169 -0.956005
2.331e+07 -2.10514 -1.7693 2.74991 -0.956351
2.332e+07 -2.03683 -1.81436 2.72774 -0.956703
2.333e+07 -1.96772 -1.85628 2.70512 -0.957062
2.334e+07 -1.89791 -1.89499 2.68198 -0.957429
2.335e+07 -1.82753 -1.9304 2.65826 -0.957805
2.336e+07 -1.75672 -1.96245 2.63387 -0.958193
2.337e+07 -1.68559 -1.99107 2.60875 -0.958591
2.338e+07 -1.61428 -2.0162 2.58282 -0.959003
2.339e+07 -1.54291 -2.0378 2.55601 -0.959428
2.34e+07 -1.47162 -2.0558 2.52824 -0.959869
2.341e+07 -1.40052 -2.07018 2.49942 -0.960327
2.342e+07 -1.32976 -2.0809 2.4695 -0.960802
2.343e+07 -1.25946 -2.08793 2.43838 -0.961296
2.344e+07 -1.18974 -2.09125 2.406 -0.96181
2.345e+07 -1.12074 -2.09085 2.37228 -0.962345
2.346e+07 -1.05258 -2.08672 2.33716 -0.962902
2.347e+07 -0.985397 -2.07885 2.30057 -0.963483
2.348e+07 -0.919304 -2.06726 2.26245 -0.964088
2.349e+07 -0.854427 -2.05195 2.22273 -0.964719
2.35e+07 -0.790888 -2.03294 2.18137 -0.965375
2.351e+07 -0.728807 -2.01027 2.1383 -0.966059
2.352e+07 -0.6683 -1.98395 2.09349 -0.96677
2.353e+07 -0.609481 -1.95404 2.04688 -0.96751
2.354e+07 -0.552464 -1.92056 1.99845 -0.968279
2.355e+07 -0.497357 -1.88359 1.94814 -0.969077
2.356e+07 -0.444266 -1.84316 1.89595 -0.969906
2.357e+07 -0.393294 -1.79936 1.84184 -0.970764
2.358e+07 -0.344542 -1.75224 1.78579 -0.971654
2.359e+07 -0.298104 -1.70188 1.7278 -0.972575
2.36e+07 -0.254073 -1.64837 1.66784 -0.973526
2.361e+07 -0.212538 -1.5918 1.60592 -0.974509
2.362e+07 -0.173582 -1.53225 1.54205 -0.975523
2.363e+07 -0.137286 -1.46982 1.47622 -0.976568
2.364e+07 -0.103725 -1.40463 1.40845 -0.977644
2.365e+07 -0.0729693 -1.33678 1.33877 -0.97875
2.366e+07 -0.0450864 -1.26638 1.26718 -0.979886
2.367e+07 -0.0201374 -1.19355 1.19372 -0.981052
2.368e+07 0.00182129 -1.11842 1.11843 -0.982247
2.369e+07 0.020738 -1.04112 1.04133 -0.983471
2.37e+07 0.0365665 -0.961778 0.962473 -0.984723
2.371e+07 0.0492656 -0.88053 0.881907 -0.986001
2.372e+07 0.0587996 -0.797516 0.799681 -0.987307
2.373e+07 0.065138 -0.712881 0.715851 -0.988637
2.374e+07 0.068256 -0.626772 0.630477 -0.989992
2.375e+07 0.0681341 -0.539337 0.543624 -0.991371
2.376e+07 0.0647587 -0.450731 0.455359 -0.992772
2.377e+07 0.0581216 -0.361107 0.365754 -0.994194
2.378e+07 0.0482202 -0.270623 0.274885 -0.995637
2.379e+07 0.0350578 -0.179438 0.18283 -0.997098
2.38e+07 0.0186433 -0.087712 0.0896714 -0.998577
2.381e+07 -0.00100896 0.00439209 0.00450649 -0.999928
2.382e+07 -0.0238786 0.0967115 0.0996158 -0.998419
2.383e+07 -0.0499397 0.189082 0.195566 -0.996896
2.384e+07 -0.0791608 0.281341 0.292265 -0.995361
2.385e+07 -0.111505 0.373321 0.389618 -0.993816
2.386e+07 -0.146929 0.46486 0.487528 -0.992261
2.387e+07 -0.185385 0.555793 0.585896 -0.9907
2.388e+07 -0.22682 0.645957 0.684622 -0.989133
2.389e+07 -0.271175 0.735189 0.783606 -0.987562
2.39e+07 -0.318385 0.823328 0.882745 -0.985988
2.391e+07 -0.368381 0.910215 0.981935 -0.984414
2.392e+07 -0.42109 0.995691 1.08107 -0.98284
2.393e+07 -0.47643 1.0796 1.18005 -0.981269
2.394e+07 -0.53432 1.16179 1.27877 -0.979702
2.395e+07 -0.594669 1.24211 1.37713 -0.978141
2.396e+07 -0.657384 1.32042 1.47501 -0.976587
2.397e+07 -0.722369 1.39656 1.57232 -0.975043
2.398e+07 -0.78952 1.4704 1.66896 -0.973509
2.399e+07 -0.858732 1.5418 1.76481 -0.971987
2.4e+07 -0.929895 1.61063 1.85979 -0.97048
2.401e+07 -1.0029 1.67675 1.95379 -0.968987
2.402e+07 -1.07762 1.74005 2.04671 -0.967513
2.403e+07 -1.15394 1.8004 2.13846 -0.966056
2.404e+07 -1.23173 1.85769 2.22894 -0.96462
2.405e+07 -1.31088 1.91181 2.31806 -0.963205
2.406e+07 -1.39125 1.96265 2.40574 -0.961814
2.407e+07 -1.4727 2.01012 2.49188 -0.960446
2.408e+07 -1.55511 2.05413 2.5764 -0.959105
2.409e+07 -1.63834 2.09457 2.65921 -0.95779
2.41e+07 -1.72226 2.13139 2.74025 -0.956504
2.411e+07 -1.80671 2.16449 2.81944 -0.955247
2.412e+07 -1.89156 2.19382 2.89669 -0.954021
2.413e+07 -1.97667 2.2193 2.97196 -0.952826
2.414e+07 -2.0619 2.24089 3.04517 -0.951664
2.415e+07 -2.1471 2.25854 3.11626 -0.950536
2.416e+07 -2.23213 2.2722 3.18517 -0.949442
2.417e+07 -2.31685 2.28185 3.25186 -0.948383
2.418e+07 -2.4011 2.28744 3.31628 -0.947361
2.419e+07 -2.48476 2.28897 3.37837 -0.946375
2.42e+07 -2.56767 2.28642 3.43811 -0.945427
2.421e+07 -2.64969 2.27978 3.49546 -0.944516
2.422e+07 -2.73069 2.26906 3.55039 -0.943645
2.423e+07 -2.81052 2.25426 3.60287 -0.942812
2.424e+07 -2.88904 2.23539 3.65288 -0.942018
2.425e+07 -2.96613 2.2125 3.70041 -0.941263
2.426e+07 -3.04164 2.18559 3.74545 -0.940548
2.427e+07 -3.11545 2.15471 3.78798 -0.939873
2.428e+07 -3.18742 2.11991 3.82801 -0.939238
2.429e+07 -3.25744 2.08123 3.86554 -0.938642
2.43e+07 -3.32537 2.03874 3.90058 -0.938086
2.431e+07 -3.3911 1.9925 3.93314 -0.937569
2.432e+07 -3.45451 1.94259 3.96324 -0.937091
2.433e+07 -3.51549 1.88907 3.9909 -0.936652
2.434e+07 -3.57394 1.83205 4.01614 -0.936252
2.435e+07 -3.62973 1.7716 4.039 -0.935889
2.436e+07 -3.68279 1.70783 4.05951 -0.935563
2.437e+07 -3.73301 1.64085 4.07771 -0.935274
2.438e+07 -3.78029 1.57076 4.09364 -0.935022
2.439e+07 -3.82456 1.49769 4.10735 -0.934804
2.44e+07 -3.86574 1.42174 4.11889 -0.934621
2.441e+07 -3.90374 1.34306 4.12831 -0.934471
2.442e+07 -3.9385 1.26177 4.13568 -0.934354
2.443e+07 -3.96994 1.17801 4.14103 -0.934269
2.444e+07 -3.99802 1.09193 4.14445 -0.934215
2.445e+07 -4.02268 1.00367 4.146 -0.93419
2.446e+07 -4.04387 0.913374 4.14574 -0.934195
2.447e+07 -4.06155 0.82121 4.14374 -0.934226
2.448e+07 -4.07567 0.727332 4.14006 -0.934285
2.449e+07 -4.08622 0.631904 4.13479 -0.934368
2.45e+07 -4.09317 0.535089 4.128 -0.934476
2.451e+07 -4.0965 0.437058 4.11975 -0.934607
2.452e+07 -4.0962 0.337982 4.11012 -0.93476
2.453e+07 -4.09226 0.238033 4.09917 -0.934934
2.454e+07 -4.08468 0.137387 4.08699 -0.935127
2.455e+07 -4.07348 0.0362222 4.07364 -0.935339
2.456e+07 -4.05867 -0.0652834 4.05919 -0.935568
2.457e+07 -4.04026 -0.16695 4.04371 -0.935814
2.458e+07 -4.01829 -0.268597 4.02726 -0.936075
2.459e+07 -3.99279 -0.370043 4.0099 -0.936351
2.46e+07 -3.96379 -0.471108 3.99169 -0.93664
2.461e+07 -3.93134 -0.57161 3.97268 -0.936942
2.462e+07 -3.8955 -0.67137 3.95293 -0.937255
2.463e+07 -3.85632 -0.770206 3.93249 -0.93758
2.464e+07 -3.81387 -0.867942 3.91138 -0.937915
2.465e+07 -3.76821 -0.964399 3.88966 -0.938259
2.466e+07 -3.71943 -1.0594 3.86736 -0.938613
2.467e+07 -3.66759 -1.15278 3.84449 -0.938976
2.468e+07 -3.6128 -1.24436 3.82109 -0.939348
2.469e+07 -3.55514 -1.33398 3.79717 -0.939727
2.47e+07 -3.49471 -1.42146 3.77273 -0.940115
2.471e+07 -3.43161 -1.50665 3.74779 -0.940511
2.472e+07 -3.36595 -1.5894 3.72234 -0.940915
2.473e+07 -3.29784 -1.66954 3.69637 -0.941327
2.474e+07 -3.22741 -1.74692 3.66987 -0.941748
2.475e+07 -3.15477 -1.82141 3.64282 -0.942178
2.476e+07 -3.08005 -1.89285 3.61519 -0.942616
2.477e+07 -3.00338 -1.96112 3.58696 -0.943064
2.478e+07 -2.92489 -2.02609 3.55809 -0.943522
2.479e+07 -2.84472 -2.08762 3.52854 -0.943991
2.48e+07 -2.76301 -2.1456 3.49826 -0.944472
2.481e+07 -2.67991 -2.19992 3.46721 -0.944965
2.482e+07 -2.59556 -2.25046 3.43534 -0.945471
2.483e+07 -2.51012 -2.29714 3.40258 -0.945991
2.484e+07 -2.42373 -2.33984 3.36888 -0.946526
2.485e+07 -2.33655 -2.3785 3.33418 -0.947077
2.486e+07 -2.24874 -2.41302 3.29841 -0.947644
2.487e+07 -2.16045 -2.44334 3.26151 -0.94823
2.488e+07 -2.07184 -2.46938 3.22341 -0.948835
2.489e+07 -1.98308 -2.49109 3.18404 -0.94946
2.49e+07 -1.89432 -2.50841 3.14334 -0.950106
2.491e+07 -1.80573 -2.52131 3.10124 -0.950774
2.492e+07 -1.71747 -2.52975 3.05767 -0.951466
2.493e+07 -1.6297 -2.5337 3.01256 -0.952182
2.494e+07 -1.54258 -2.53313 2.96586 -0.952923
2.495e+07 -1.45628 -2.52805 2.91749 -0.953691
2.496e+07 -1.37095 -2.51844 2.86741 -0.954486
2.497e+07 -1.28675 -2.5043 2.81554 -0.955309
2.498e+07 -1.20384 -2.48566 2.76183 -0.956161
2.499e+07 -1.12239 -2.46252 2.70624 -0.957044
2.5e+07 -1.04253 -2.43492 2.64872 -0.957957
2.501e+07 -0.964427 -2.40289 2.58921 -0.958901
2.502e+07 -0.888227 -2.36648 2.52769 -0.959878
2.503e+07 -0.814076 -2.32574 2.4641 -0.960887
2.504e+07 -0.742117 -2.28073 2.39843 -0.96193
2.505e+07 -0.672491 -2.23151 2.33064 -0.963006
2.506e+07 -0.605334 -2.17817 2.26072 -0.964116
2.507e+07 -0.54078 -2.12078 2.18864 -0.96526
2.508e+07 -0.478957 -2.05943 2.11439 -0.966438
2.509e+07 -0.419989 -1.99422 2.03797 -0.967651
2.51e+07 -0.363996 -1.92526 1.95937 -0.968899
2.511e+07 -0.311094 -1.85265 1.87859 -0.970181
2.512e+07 -0.261393 -1.77652 1.79565 -0.971498
2.513e+07 -0.214997 -1.69699 1.71056 -0.972848
2.514e+07 -0.172007 -1.61419 1.62333 -0.974233
2.515e+07 -0.132515 -1.52826 1.534 -0.975651
2.516e+07 -0.096612 -1.43934 1.44258 -0.977102
2.517e+07 -0.0643786 -1.34759 1.34912 -0.978585
2.518e+07 -0.0358915 -1.25315 1.25366 -0.980101
2.519e+07 -0.0112209 -1.15618 1.15624 -0.981647
2.52e+07 0.00956956 -1.05686 1.0569 -0.983224
2.521e+07 0.0264228 -0.955341 0.955706 -0.98483
2.522e+07 0.0392882 -0.85181 0.852715 -0.986465
2.523e+07 0.0481221 -0.746441 0.74799 -0.988127
2.524e+07 0.0528875 -0.639416 0.641599 -0.989816
2.525e+07 0.0535544 -0.53092 0.533614 -0.99153
2.526e+07 0.0500999 -0.421141 0.424111 -0.993268
2.527e+07 0.042508 -0.310272 0.31317 -0.995029
2.528e+07 0.0307699 -0.198505 0.200876 -0.996811
2.529e+07 0.0148842 -0.0860379 0.0873158 -0.998614
2.53e+07 -0.00514368 0.0269328 0.0274196 -0.999565
2.531e+07 -0.0293009 0.140207 0.143236 -0.997726
2.532e+07 -0.0575673 0.253585 0.260037 -0.995872
2.533e+07 -0.0899159 0.366864 0.377722 -0.994004
2.534e+07 -0.126312 0.479844 0.49619 -0.992124
2.535e+07 -0.166714 0.592321 0.615335 -0.990233
2.536e+07 -0.211074 0.704095 0.735052 -0.988333
2.537e+07 -0.259335 0.814964 0.855231 -0.986425
2.538e+07 -0.311436 0.924728 0.975763 -0.984512
2.539e+07 -0.367306 1.03319 1.09654 -0.982595
2.54e+07 -0.426869 1.14015 1.21744 -0.980676
2.541e+07 -0.490042 1.24541 1.33835 -0.978756
2.542e+07 -0.556735 1.34879 1.45917 -0.976839
2.543e+07 -0.626853 1.45009 1.57978 -0.974924
2.544e+07 -0.700293 1.54912 1.70005 -0.973015
2.545e+07 -0.776946 1.6457 1.81989 -0.971113
2.546e+07 -0.856699 1.73966 1.93916 -0.96922
2.547e+07 -0.93943 1.83081 2.05777 -0.967337
2.548e+07 -1.02502 1.91899 2.17559 -0.965467
2.549e+07 -1.11332 2.00403 2.29251 -0.963611
2.55e+07 -1.20421 2.08576 2.40843 -0.961771
2.551e+07 -1.29755 2.16404 2.52323 -0.959949
2.552e+07 -1.39319 2.2387 2.63681 -0.958146
2.553e+07 -1.49097 2.30962 2.74906 -0.956364
2.554e+07 -1.59074 2.37664 2.85987 -0.954605
2.555e+07 -1.69235 2.43963 2.96915 -0.952871
2.556e+07 -1.79563 2.49848 3.0768 -0.951162
2.557e+07 -1.90041 2.55306 3.18272 -0.949481
2.558e+07 -2.00653 2.60326 3.28682 -0.947828
2.559e+07 -2.11382 2.64899 3.389 -0.946206
2.56e+07 -2.22209 2.69013 3.48919 -0.944616
2.561e+07 -2.33117 2.7266 3.5873 -0.943059
2.562e+07 -2.44088 2.75833 3.68325 -0.941536
2.563e+07 -2.55105 2.78525 3.77696 -0.940048
2.564e+07 -2.66148 2.80728 3.86837 -0.938597
2.565e+07 -2.772 2.82437 3.9574 -0.937184
2.566e+07 -2.88242 2.83647 4.044 -0.93581
2.567e+07 -2.99255 2.84356 4.12809 -0.934475
2.568e+07 -3.10221 2.84559 4.20964 -0.93318
2.569e+07 -3.21122 2.84255 4.28859 -0.931927
2.57e+07 -3.31939 2.83442 4.36489 -0.930716
2.571e+07 -3.42654 2.82121 4.43851 -0.929547
2.572e+07 -3.53248 2.80292 4.50941 -0.928422
2.573e+07 -3.63703 2.77956 4.57755 -0.92734
2.574e+07 -3.74002 2.75116 4.64292 -0.926303
2.575e+07 -3.84127 2.71776 4.70548 -0.92531
2.576e+07 -3.9406 2.67939 4.76523 -0.924361
2.577e+07 -4.03784 2.63611 4.82216 -0.923458
2.578e+07 -4.13282 2.58797 4.87625 -0.922599
2.579e+07 -4.22537 2.53505 4.9275 -0.921786
2.58e+07 -4.31534 2.47742 4.97592 -0.921017
2.581e+07 -4.40257 2.41517 5.02152 -0.920293
2.582e+07 -4.48689 2.3484 5.0643 -0.919614
2.583e+07 -4.56816 2.27721 5.10429 -0.918979
2.584e+07 -4.64624 2.2017 5.14151 -0.918389
2.585e+07 -4.72099 2.12201 5.17597 -0.917842
2.586e+07 -4.79227 2.03825 5.20772 -0.917338
2.587e+07 -4.85995 1.95056 5.23677 -0.916877
2.588e+07 -4.92391 1.85908 5.26318 -0.916457
2.589e+07 -4.98404 1.76397 5.28698 -0.91608
2.59e+07 -5.04021 1.66537 5.30822 -0.915743
2.591e+07 -5.09233 1.56346 5.32694 -0.915445
2.592e+07 -5.1403 1.4584 5.34319 -0.915187
2.593e+07 -5.18403 1.35037 5.35702 -0.914968
2.594e+07 -5.22344 1.23954 5.3685 -0.914786
2.595e+07 -5.25844 1.12612 5.37767 -0.91464
2.596e+07 -5.28897 1.01028 5.3846 -0.91453
2.597e+07 -5.31497 0.892224 5.38934 -0.914455
2.598e+07 -5.33639 0.77216 5.39196 -0.914413
2.599e+07 -5.35317 0.65029 5.39252 -0.914404
2.6e+07 -5.36527 0.526825 5.39108 -0.914427
2.601e+07 -5.37268 0.401978 5.3877 -0.914481
2.602e+07 -5.37537 0.275967 5.38245 -0.914564
2.603e+07 -5.37331 0.149012 5.37538 -0.914677
2.604e+07 -5.36652 0.0213341 5.36656 -0.914817
2.605e+07 -5.35498 -0.106841 5.35604 -0.914983
2.606e+07 -5.33871 -0.235289 5.34389 -0.915176
2.607e+07 -5.31774 -0.36378 5.33016 -0.915394
2.608e+07 -5.29207 -0.492088 5.3149 -0.915636
2.609e+07 -5.26177 -0.619983 5.29817 -0.915902
2.61e+07 -5.22686 -0.747237 5.28 -0.916191
2.611e+07 -5.18739 -0.873621 5.26044 -0.916501
2.612e+07 -5.14344 -0.998907 5.23954 -0.916833
2.613e+07 -5.09506 -1.12287 5.21733 -0.917185
2.614e+07 -5.04234 -1.24528 5.19384 -0.917558
2.615e+07 -4.98536 -1.36592 5.1691 -0.917951
2.616e+07 -4.92421 -1.48456 5.14313 -0.918363
2.617e+07 -4.85899 -1.601 5.11595 -0.918794
2.618e+07 -4.78981 -1.715 5.08758 -0.919245
2.619e+07 -4.71678 -1.82637 5.05802 -0.919714
2.62e+07 -4.64002 -1.93489 5.02728 -0.920202
2.621e+07 -4.55967 -2.04035 4.99536 -0.920709
2.622e+07 -4.47586 -2.14257 4.96225 -0.921234
2.623e+07 -4.38873 -2.24135 4.92794 -0.921779
2.624e+07 -4.29843 -2.3365 4.89242 -0.922343
2.625e+07 -4.20512 -2.42783 4.85566 -0.922926
2.626e+07 -4.10896 -2.51517 4.81764 -0.92353
2.627e+07 -4.01011 -2.59835 4.77833 -0.924154
2.628e+07 -3.90875 -2.67721 4.73769 -0.924799
2.629e+07 -3.80505 -2.75158 4.6957 -0.925465
2.63e+07 -3.69919 -2.82133 4.6523 -0.926154
2.631e+07 -3.59137 -2.8863 4.60746 -0.926866
2.632e+07 -3.48177 -2.94637 4.56112 -0.927601
2.633e+07 -3.37059 -3.0014 4.51323 -0.928361
2.634e+07 -3.25802 -3.05129 4.46375 -0.929147
2.635e+07 -3.14427 -3.09592 4.41262 -0.929958
2.636e+07 -3.02955 -3.1352 4.35978 -0.930797
2.637e+07 -2.91405 -3.16903 4.30517 -0.931664
2.638e+07 -2.79799 -3.19733 4.24873 -0.93256
2.639e+07 -2.68159 -3.22004 4.19041 -0.933486
2.64e+07 -2.56504 -3.23708 4.13015 -0.934442
2.641e+07 -2.44858 -3.24841 4.06789 -0.93543
2.642e+07 -2.33241 -3.25399 4.00357 -0.936451
2.643e+07 -2.21675 -3.25377 3.93713 -0.937506
2.644e+07 -2.10181 -3.24775 3.86852 -0.938595
2.645e+07 -1.98781 -3.2359 3.79769 -0.939719
2.646e+07 -1.87497 -3.21823 3.72458 -0.94088
2.647e+07 -1.76349 -3.19474 3.64915 -0.942077
2.648e+07 -1.65359 -3.16546 3.57135 -0.943312
2.649e+07 -1.54549 -3.13041 3.49113 -0.944585
2.65e+07 -1.43938 -3.08963 3.40846 -0.945897
2.651e+07 -1.33548 -3.04317 3.32331 -0.947249
2.652e+07 -1.23399 -2.99109 3.23564 -0.948641
2.653e+07 -1.13511 -2.93346 3.14542 -0.950073
2.654e+07 -1.03903 -2.87037 3.05264 -0.951545
2.655e+07 -0.945943 -2.80189 2.95726 -0.953059
2.656e+07 -0.856042 -2.72814 2.85929 -0.954614
2.657e+07 -0.769509 -2.64922 2.75871 -0.956211
2.658e+07 -0.686521 -2.56525 2.65552 -0.957849
2.659e+07 -0.607251 -2.47636 2.54972 -0.959528
2.66e+07 -0.531867 -2.38268 2.44132 -0.961249
