freq Xk_re Xk_im Xk_mag Xk_err
2.225e+07 0.0417788 -0.274951 0.278107
2.226e+07 0.0400448 -0.237628 0.240979
2.227e+07 0.0369661 -0.199809 0.2032
2.228e+07 0.0325431 -0.16156 0.164805
2.229e+07 0.0267786 -0.122949 0.125831
2.23e+07 0.0196778 -0.0840424 0.0863154
2.231e+07 0.0112482 -0.0449102 0.0462974
2.232e+07 0.00149965 -0.00562141 0.00581801
2.233e+07 -0.00955577 0.0337543 0.0350809
2.234e+07 -0.0219036 0.073147 0.0763561
2.235e+07 -0.035527 0.112487 0.117964
2.236e+07 -0.0504071 0.151703 0.159858
2.237e+07 -0.0665225 0.190726 0.201994
2.238e+07 -0.0838499 0.229485 0.244324
2.239e+07 -0.102364 0.267911 0.286801
2.24e+07 -0.122036 0.305936 0.329378
2.241e+07 -0.142837 0.34349 0.372005
2.242e+07 -0.164735 0.380506 0.414635
2.243e+07 -0.187696 0.416916 0.457218
2.244e+07 -0.211684 0.452655 0.499706
2.245e+07 -0.236662 0.487657 0.54205
2.246e+07 -0.26259 0.52186 0.584201
2.247e+07 -0.289427 0.555199 0.62611
2.248e+07 -0.317129 0.587615 0.667729
2.249e+07 -0.345654 0.619047 0.70901
2.25e+07 -0.374953 0.649438 0.749906
2.251e+07 -0.404981 0.678731 0.79037
2.252e+07 -0.435687 0.706872 0.830356
2.253e+07 -0.467022 0.733809 0.869819
2.254e+07 -0.498934 0.759491 0.908715
2.255e+07 -0.531371 0.78387 0.946999
2.256e+07 -0.56428 0.8069 0.984631
2.257e+07 -0.597605 0.828537 1.02157
2.258e+07 -0.631291 0.848739 1.05777
2.259e+07 -0.665282 0.867469 1.09321
2.26e+07 -0.699521 0.884689 1.12783
2.261e+07 -0.733951 0.900365 1.16161
2.262e+07 -0.768514 0.914468 1.19451
2.263e+07 -0.803151 0.926967 1.22651
2.264e+07 -0.837805 0.937839 1.25756
2.265e+07 -0.872416 0.94706 1.28765
2.266e+07 -0.906926 0.95461 1.31674
2.267e+07 -0.941275 0.960472 1.34481
2.268e+07 -0.975406 0.964633 1.37184
2.269e+07 -1.00926 0.967082 1.3978
2.27e+07 -1.04278 0.96781 1.42269
2.271e+07 -1.07591 0.966814 1.44648
2.272e+07 -1.10858 0.96409 1.46916
2.273e+07 -1.14075 0.959641 1.49071
2.274e+07 -1.17236 0.953471 1.51114
2.275e+07 -1.20335 0.945587 1.53042
2.276e+07 -1.23368 0.936 1.54857
2.277e+07 -1.26328 0.924723 1.56556
2.278e+07 -1.2921 0.911773 1.58141
2.279e+07 -1.3201 0.897169 1.59611
2.28e+07 -1.34723 0.880934 1.60968
2.281e+07 -1.37343 0.863094 1.62211
2.282e+07 -1.39866 0.843676 1.63342
2.283e+07 -1.42289 0.822713 1.64361
2.284e+07 -1.44605 0.800238 1.65271
2.285e+07 -1.46812 0.776288 1.66072
2.286e+07 -1.48905 0.750903 1.66767
2.287e+07 -1.50881 0.724124 1.67358
2.288e+07 -1.52736 0.695997 1.67846
2.289e+07 -1.54466 0.666569 1.68235
2.29e+07 -1.56069 0.63589 1.68527
2.291e+07 -1.57542 0.604011 1.68724
2.292e+07 -1.58881 0.570987 1.6883
2.293e+07 -1.60085 0.536874 1.68848
2.294e+07 -1.61151 0.50173 1.68781
2.295e+07 -1.62077 0.465617 1.68633
2.296e+07 -1.62861 0.428595 1.68407
2.297e+07 -1.63502 0.39073 1.68106
2.298e+07 -1.63999 0.352087 1.67736
2.299e+07 -1.6435 0.312733 1.67299
2.3e+07 -1.64555 0.272736 1.668
2.301e+07 -1.64613 0.232167 1.66242
2.302e+07 -1.64523 0.191096 1.65629
2.303e+07 -1.64287 0.149596 1.64966
2.304e+07 -1.63903 0.107739 1.64257
2.305e+07 -1.63373 0.0655995 1.63505
2.306e+07 -1.62697 0.0232517 1.62714
2.307e+07 -1.61877 -0.0192293 1.61888
2.308e+07 -1.60913 -0.0617684 1.61031
2.309e+07 -1.59807 -0.10429 1.60146
2.31e+07 -1.5856 -0.146718 1.59238
2.311e+07 -1.57176 -0.188976 1.58308
2.312e+07 -1.55656 -0.23099 1.5736
2.313e+07 -1.54002 -0.272684 1.56398
2.314e+07 -1.52218 -0.313982 1.55422
2.315e+07 -1.50306 -0.354811 1.54437
2.316e+07 -1.48269 -0.395096 1.53443
2.317e+07 -1.46112 -0.434766 1.52443
2.318e+07 -1.43837 -0.473747 1.51437
2.319e+07 -1.41448 -0.511968 1.50428
2.32e+07 -1.3895 -0.549361 1.49416
2.321e+07 -1.36347 -0.585856 1.48401
2.322e+07 -1.33643 -0.621387 1.47383
2.323e+07 -1.30844 -0.655889 1.46362
2.324e+07 -1.27953 -0.689296 1.45338
2.325e+07 -1.24976 -0.721549 1.4431
2.326e+07 -1.21918 -0.752586 1.43275
2.327e+07 -1.18785 -0.782349 1.42234
2.328e+07 -1.15581 -0.810783 1.41183
2.329e+07 -1.12313 -0.837834 1.40121
2.33e+07 -1.08986 -0.863451 1.39045
2.331e+07 -1.05606 -0.887585 1.37952
2.332e+07 -1.0218 -0.91019 1.3684
2.333e+07 -0.987124 -0.931222 1.35705
2.334e+07 -0.952105 -0.950639 1.34544
2.335e+07 -0.916801 -0.968405 1.33354
2.336e+07 -0.881277 -0.984483 1.32131
2.337e+07 -0.845596 -0.99884 1.30871
2.338e+07 -0.809821 -1.01145 1.2957
2.339e+07 -0.774019 -1.02228 1.28225
2.34e+07 -0.738252 -1.03131 1.26832
2.341e+07 -0.702587 -1.03853 1.25386
2.342e+07 -0.667088 -1.0439 1.23885
2.343e+07 -0.631819 -1.04743 1.22324
2.344e+07 -0.596845 -1.0491 1.20699
2.345e+07 -0.562231 -1.0489 1.19008
2.346e+07 -0.52804 -1.04682 1.17246
2.347e+07 -0.494334 -1.04288 1.1541
2.348e+07 -0.461178 -1.03706 1.13498
2.349e+07 -0.428632 -1.02938 1.11506
2.35e+07 -0.396757 -1.01985 1.09431
2.351e+07 -0.365613 -1.00847 1.0727
2.352e+07 -0.335259 -0.99527 1.05022
2.353e+07 -0.305752 -0.980262 1.02684
2.354e+07 -0.277149 -0.963471 1.00254
2.355e+07 -0.249504 -0.944921 0.977307
2.356e+07 -0.222871 -0.924642 0.951123
2.357e+07 -0.1973 -0.902667 0.923978
2.358e+07 -0.172843 -0.879029 0.895861
2.359e+07 -0.149547 -0.853768 0.866766
2.36e+07 -0.127458 -0.826924 0.836689
2.361e+07 -0.106622 -0.798541 0.805628
2.362e+07 -0.0870792 -0.768668 0.773584
2.363e+07 -0.0688708 -0.737352 0.740561
2.364e+07 -0.0520345 -0.704647 0.706566
2.365e+07 -0.0366058 -0.670607 0.671606
2.366e+07 -0.0226181 -0.635291 0.635693
2.367e+07 -0.0101021 -0.598757 0.598842
2.368e+07 0.00091367 -0.561069 0.561069
2.369e+07 0.0104035 -0.522289 0.522393
2.37e+07 0.018344 -0.482486 0.482834
2.371e+07 0.0247146 -0.441727 0.442417
2.372e+07 0.0294974 -0.400082 0.401168
2.373e+07 0.0326771 -0.357624 0.359114
2.374e+07 0.0342413 -0.314426 0.316285
2.375e+07 0.0341802 -0.270564 0.272714
2.376e+07 0.0324869 -0.226114 0.228435
2.377e+07 0.0291573 -0.181153 0.183484
2.378e+07 0.0241902 -0.135761 0.137899
2.379e+07 0.0175871 -0.0900167 0.0917187
2.38e+07 0.00935258 -0.0440016 0.0449846
2.381e+07 -0.000506154 0.00220333 0.00226072
2.382e+07 -0.0119789 0.0485163 0.0499733
2.383e+07 -0.0250528 0.0948551 0.0981078
2.384e+07 -0.0397118 0.141137 0.146618
2.385e+07 -0.0559375 0.18728 0.195456
2.386e+07 -0.0737085 0.233202 0.244573
2.387e+07 -0.0930005 0.278819 0.293921
2.388e+07 -0.113787 0.324051 0.343448
2.389e+07 -0.136038 0.368815 0.393104
2.39e+07 -0.159721 0.413031 0.442838
2.391e+07 -0.184802 0.456618 0.492597
2.392e+07 -0.211244 0.499498 0.542331
2.393e+07 -0.239006 0.541593 0.591986
2.394e+07 -0.268047 0.582825 0.641509
2.395e+07 -0.298322 0.623119 0.69085
2.396e+07 -0.329784 0.662401 0.739954
2.397e+07 -0.362384 0.700599 0.788771
2.398e+07 -0.396071 0.737641 0.837249
2.399e+07 -0.430792 0.773459 0.885336
2.4e+07 -0.466491 0.807987 0.932983
2.401e+07 -0.503113 0.841159 0.980138
2.402e+07 -0.540597 0.872912 1.02675
2.403e+07 -0.578884 0.903188 1.07278
2.404e+07 -0.617912 0.931928 1.11817
2.405e+07 -0.657617 0.959078 1.16288
2.406e+07 -0.697934 0.984584 1.20686
2.407e+07 -0.738797 1.0084 1.25008
2.408e+07 -0.780139 1.03047 1.29247
2.409e+07 -0.821892 1.05076 1.33402
2.41e+07 -0.863987 1.06923 1.37467
2.411e+07 -0.906353 1.08584 1.4144
2.412e+07 -0.948921 1.10055 1.45316
2.413e+07 -0.991618 1.11334 1.49091
2.414e+07 -1.03437 1.12417 1.52764
2.415e+07 -1.07712 1.13302 1.5633
2.416e+07 -1.11977 1.13987 1.59787
2.417e+07 -1.16227 1.14471 1.63133
2.418e+07 -1.20454 1.14752 1.66364
2.419e+07 -1.2465 1.14829 1.69479
2.42e+07 -1.2881 1.14701 1.72476
2.421e+07 -1.32924 1.14367 1.75353
2.422e+07 -1.36988 1.13829 1.78109
2.423e+07 -1.40992 1.13087 1.80742
2.424e+07 -1.44932 1.12141 1.83251
2.425e+07 -1.48799 1.10992 1.85635
2.426e+07 -1.52587 1.09642 1.87894
2.427e+07 -1.5629 1.08093 1.90028
2.428e+07 -1.599 1.06347 1.92036
2.429e+07 -1.63413 1.04407 1.93919
2.43e+07 -1.66821 1.02276 1.95677
2.431e+07 -1.70118 0.99956 1.9731
2.432e+07 -1.73299 0.974519 1.9882
2.433e+07 -1.76358 0.947673 2.00208
2.434e+07 -1.7929 0.919065 2.01474
2.435e+07 -1.82089 0.888742 2.02621
2.436e+07 -1.84751 0.856753 2.0365
2.437e+07 -1.8727 0.82315 2.04563
2.438e+07 -1.89642 0.78799 2.05362
2.439e+07 -1.91863 0.75133 2.0605
2.44e+07 -1.93929 0.713232 2.06628
2.441e+07 -1.95835 0.67376 2.07101
2.442e+07 -1.97579 0.63298 2.0747
2.443e+07 -1.99156 0.590962 2.07739
2.444e+07 -2.00565 0.547777 2.07911
2.445e+07 -2.01802 0.503499 2.07988
2.446e+07 -2.02865 0.458203 2.07975
2.447e+07 -2.03752 0.411968 2.07875
2.448e+07 -2.0446 0.364874 2.07691
2.449e+07 -2.0499 0.317001 2.07426
2.45e+07 -2.05338 0.268433 2.07085
2.451e+07 -2.05505 0.219255 2.06671
2.452e+07 -2.0549 0.169552 2.06188
2.453e+07 -2.05292 0.119411 2.05639
2.454e+07 -2.04912 0.0689216 2.05028
2.455e+07 -2.0435 0.0181712 2.04358
2.456e+07 -2.03607 -0.0327501 2.03634
2.457e+07 -2.02684 -0.0837521 2.02857
2.458e+07 -2.01582 -0.134744 2.02032
2.459e+07 -2.00302 -0.185636 2.01161
2.46e+07 -1.98848 -0.236336 2.00247
2.461e+07 -1.9722 -0.286754 1.99294
2.462e+07 -1.95422 -0.336799 1.98303
2.463e+07 -1.93456 -0.386382 1.97277
2.464e+07 -1.91327 -0.435412 1.96219
2.465e+07 -1.89036 -0.483801 1.95129
2.466e+07 -1.86589 -0.53146 1.9401
2.467e+07 -1.83989 -0.578304 1.92863
2.468e+07 -1.8124 -0.624246 1.91689
2.469e+07 -1.78347 -0.669203 1.90489
2.47e+07 -1.75315 -0.71309 1.89263
2.471e+07 -1.7215 -0.755828 1.88012
2.472e+07 -1.68856 -0.797337 1.86735
2.473e+07 -1.6544 -0.83754 1.85432
2.474e+07 -1.61906 -0.876361 1.84103
2.475e+07 -1.58262 -0.913728 1.82746
2.476e+07 -1.54514 -0.949569 1.8136
2.477e+07 -1.50667 -0.983817 1.79943
2.478e+07 -1.4673 -1.01641 1.78495
2.479e+07 -1.42708 -1.04727 1.77013
2.48e+07 -1.38609 -1.07636 1.75494
2.481e+07 -1.3444 -1.10361 1.73936
2.482e+07 -1.30209 -1.12897 1.72337
2.483e+07 -1.25923 -1.15238 1.70694
2.484e+07 -1.21589 -1.17381 1.69003
2.485e+07 -1.17215 -1.1932 1.67262
2.486e+07 -1.1281 -1.21052 1.65468
2.487e+07 -1.08381 -1.22572 1.63617
2.488e+07 -1.03936 -1.23879 1.61705
2.489e+07 -0.994832 -1.24968 1.59731
2.49e+07 -0.950306 -1.25837 1.57689
2.491e+07 -0.905863 -1.26484 1.55577
2.492e+07 -0.861586 -1.26907 1.53391
2.493e+07 -0.817555 -1.27105 1.51128
2.494e+07 -0.773851 -1.27077 1.48785
2.495e+07 -0.730556 -1.26822 1.46359
2.496e+07 -0.687749 -1.2634 1.43846
2.497e+07 -0.645511 -1.25631 1.41244
2.498e+07 -0.603921 -1.24695 1.3855
2.499e+07 -0.563057 -1.23535 1.35761
2.5e+07 -0.522996 -1.2215 1.32876
2.501e+07 -0.483815 -1.20544 1.2989
2.502e+07 -0.445588 -1.18717 1.26804
2.503e+07 -0.408389 -1.16673 1.23614
2.504e+07 -0.37229 -1.14415 1.2032
2.505e+07 -0.337362 -1.11946 1.16919
2.506e+07 -0.303672 -1.0927 1.13411
2.507e+07 -0.271288 -1.06391 1.09795
2.508e+07 -0.240274 -1.03313 1.06071
2.509e+07 -0.210692 -1.00042 1.02237
2.51e+07 -0.182603 -0.965825 0.982936
2.511e+07 -0.156064 -0.929402 0.942414
2.512e+07 -0.13113 -0.891211 0.900806
2.513e+07 -0.107855 -0.851314 0.858119
2.514e+07 -0.0862888 -0.809777 0.814361
2.515e+07 -0.0664777 -0.766669 0.769545
2.516e+07 -0.0484664 -0.722062 0.723687
2.517e+07 -0.0322962 -0.676031 0.676802
2.518e+07 -0.0180054 -0.628654 0.628911
2.519e+07 -0.00562909 -0.58001 0.580037
2.52e+07 0.00480067 -0.530182 0.530204
2.521e+07 0.0132553 -0.479256 0.47944
2.522e+07 0.0197093 -0.427319 0.427773
2.523e+07 0.0241409 -0.37446 0.375237
2.524e+07 0.0265315 -0.320769 0.321865
2.525e+07 0.0268661 -0.266341 0.267693
2.526e+07 0.0251331 -0.21127 0.212759
2.527e+07 0.0213245 -0.155651 0.157105
2.528e+07 0.0154361 -0.0995823 0.100772
2.529e+07 0.00746681 -0.0431618 0.0438029
2.53e+07 -0.00258038 0.0135111 0.0137553
2.531e+07 -0.0146991 0.0703364 0.0718559
2.532e+07 -0.0288792 0.127213 0.13045
2.533e+07 -0.0451072 0.184041 0.189488
2.534e+07 -0.0633657 0.240718 0.248919
2.535e+07 -0.0836339 0.297144 0.308689
2.536e+07 -0.105887 0.353216 0.368746
2.537e+07 -0.130098 0.408835 0.429035
2.538e+07 -0.156235 0.463899 0.489501
2.539e+07 -0.184263 0.518309 0.550088
2.54e+07 -0.214143 0.571967 0.61074
2.541e+07 -0.245834 0.624774 0.671399
2.542e+07 -0.279292 0.676633 0.732009
2.543e+07 -0.314467 0.727451 0.792511
2.544e+07 -0.351309 0.777131 0.852849
2.545e+07 -0.389763 0.825584 0.912964
2.546e+07 -0.429772 0.872718 0.9728
2.547e+07 -0.471275 0.918446 1.0323
2.548e+07 -0.514209 0.962681 1.09141
2.549e+07 -0.558509 1.00534 1.15006
2.55e+07 -0.604106 1.04634 1.20821
2.551e+07 -0.65093 1.08561 1.2658
2.552e+07 -0.698906 1.12307 1.32278
2.553e+07 -0.747959 1.15864 1.37909
2.554e+07 -0.798012 1.19226 1.43468
2.555e+07 -0.848985 1.22387 1.48951
2.556e+07 -0.900796 1.25339 1.54351
2.557e+07 -0.953362 1.28077 1.59664
2.558e+07 -1.0066 1.30595 1.64887
2.559e+07 -1.06042 1.32889 1.70013
2.56e+07 -1.11473 1.34953 1.75039
2.561e+07 -1.16946 1.36783 1.79961
2.562e+07 -1.22449 1.38375 1.84774
2.563e+07 -1.27976 1.39725 1.89475
2.564e+07 -1.33516 1.4083 1.94061
2.565e+07 -1.3906 1.41687 1.98527
2.566e+07 -1.44599 1.42295 2.02871
2.567e+07 -1.50124 1.4265 2.0709
2.568e+07 -1.55626 1.42752 2.11181
2.569e+07 -1.61094 1.42599 2.15142
2.57e+07 -1.66521 1.42192 2.18969
2.571e+07 -1.71896 1.41529 2.22662
2.572e+07 -1.7721 1.40611 2.26219
2.573e+07 -1.82455 1.3944 2.29638
2.574e+07 -1.87622 1.38015 2.32917
2.575e+07 -1.92701 1.36339 2.36055
2.576e+07 -1.97684 1.34414 2.39053
2.577e+07 -2.02562 1.32243 2.41908
2.578e+07 -2.07327 1.29828 2.44622
2.579e+07 -2.1197 1.27173 2.47193
2.58e+07 -2.16484 1.24282 2.49622
2.581e+07 -2.20859 1.2116 2.5191
2.582e+07 -2.25089 1.1781 2.54056
2.583e+07 -2.29167 1.14238 2.56062
2.584e+07 -2.33084 1.10451 2.57929
2.585e+07 -2.36833 1.06453 2.59658
2.586e+07 -2.40409 1.02251 2.6125
2.587e+07 -2.43804 0.978517 2.62708
2.588e+07 -2.47013 0.932628 2.64033
2.589e+07 -2.50029 0.884913 2.65227
2.59e+07 -2.52847 0.835452 2.66292
2.591e+07 -2.55462 0.784327 2.67231
2.592e+07 -2.57869 0.731622 2.68046
2.593e+07 -2.60062 0.677426 2.68741
2.594e+07 -2.62039 0.62183 2.69316
2.595e+07 -2.63795 0.564928 2.69776
2.596e+07 -2.65327 0.506816 2.70124
2.597e+07 -2.66631 0.447593 2.70362
2.598e+07 -2.67705 0.387362 2.70493
2.599e+07 -2.68547 0.326225 2.70521
2.6e+07 -2.69154 0.264287 2.70449
2.601e+07 -2.69526 0.201656 2.70279
2.602e+07 -2.69661 0.138442 2.70016
2.603e+07 -2.69558 0.0747533 2.69661
2.604e+07 -2.69217 0.0107025 2.69219
2.605e+07 -2.68638 -0.0535981 2.68691
2.606e+07 -2.67822 -0.118035 2.68082
2.607e+07 -2.6677 -0.182494 2.67393
2.608e+07 -2.65482 -0.246861 2.66628
2.609e+07 -2.63962 -0.311021 2.65788
2.61e+07 -2.62211 -0.374859 2.64876
2.611e+07 -2.60231 -0.438261 2.63895
2.612e+07 -2.58026 -0.501112 2.62847
2.613e+07 -2.55599 -0.563298 2.61733
2.614e+07 -2.52954 -0.624707 2.60554
2.615e+07 -2.50096 -0.685227 2.59313
2.616e+07 -2.47028 -0.744746 2.5801
2.617e+07 -2.43756 -0.803156 2.56647
2.618e+07 -2.40285 -0.860347 2.55224
2.619e+07 -2.36622 -0.916215 2.53741
2.62e+07 -2.32771 -0.970655 2.52199
2.621e+07 -2.28741 -1.02356 2.50597
2.622e+07 -2.24536 -1.07484 2.48936
2.623e+07 -2.20165 -1.1244 2.47215
2.624e+07 -2.15635 -1.17213 2.45433
2.625e+07 -2.10954 -1.21795 2.43589
2.626e+07 -2.0613 -1.26176 2.41682
2.627e+07 -2.01171 -1.30349 2.3971
2.628e+07 -1.96086 -1.34305 2.37671
2.629e+07 -1.90884 -1.38036 2.35565
2.63e+07 -1.85574 -1.41535 2.33387
2.631e+07 -1.80165 -1.44794 2.31138
2.632e+07 -1.74667 -1.47807 2.28813
2.633e+07 -1.69089 -1.50568 2.26411
2.634e+07 -1.63442 -1.53071 2.23929
2.635e+07 -1.57736 -1.5531 2.21363
2.636e+07 -1.5198 -1.57281 2.18713
2.637e+07 -1.46186 -1.58978 2.15973
2.638e+07 -1.40364 -1.60398 2.13142
2.639e+07 -1.34525 -1.61537 2.10216
2.64e+07 -1.28678 -1.62392 2.07193
2.641e+07 -1.22836 -1.6296 2.0407
2.642e+07 -1.17008 -1.6324 2.00843
2.643e+07 -1.11205 -1.63229 1.9751
2.644e+07 -1.05439 -1.62927 1.94068
2.645e+07 -0.997205 -1.62332 1.90515
2.646e+07 -0.940596 -1.61446 1.86847
2.647e+07 -0.884673 -1.60268 1.83063
2.648e+07 -0.829543 -1.58798 1.7916
2.649e+07 -0.775311 -1.5704 1.75136
2.65e+07 -0.722082 -1.54994 1.70989
2.651e+07 -0.669959 -1.52664 1.66717
2.652e+07 -0.619045 -1.50051 1.62319
2.653e+07 -0.569438 -1.4716 1.57793
2.654e+07 -0.521238 -1.43995 1.53139
2.655e+07 -0.474542 -1.4056 1.48354
2.656e+07 -0.429442 -1.3686 1.43439
2.657e+07 -0.386032 -1.32901 1.38394
2.658e+07 -0.3444 -1.28688 1.33217
2.659e+07 -0.304634 -1.24229 1.27909
2.66e+07 -0.266816 -1.1953 1.22471
2.661e+07 -0.231029 -1.14598 1.16903
2.662e+07 -0.19735 -1.09441 1.11206
2.663e+07 -0.165854 -1.04068 1.05381
2.664e+07 -0.136611 -0.984872 0.994302
2.665e+07 -0.109689 -0.927075 0.933541
2.666e+07 -0.0851524 -0.867384 0.871554
2.667e+07 -0.0630604 -0.805898 0.808362
2.668e+07 -0.0434694 -0.742719 0.74399
2.669e+07 -0.0264313 -0.677951 0.678466
2.67e+07 -0.0119939 -0.611704 0.611822
2.671e+07 -0.000200845 -0.544088 0.544088
2.672e+07 0.00890874 -0.475219 0.475302
2.673e+07 0.0153001 -0.405212 0.405501
2.674e+07 0.0189431 -0.334188 0.334725
2.675e+07 0.0198121 -0.262269 0.263016
2.676e+07 0.0178863 -0.189578 0.19042
2.677e+07 0.0131493 -0.116241 0.116982
2.678e+07 0.00558973 -0.042386 0.0427529
2.679e+07 -0.00479893 0.0318583 0.0322177
2.68e+07 -0.0180185 0.106362 0.107877
2.681e+07 -0.0340658 0.180993 0.184171
2.682e+07 -0.0529328 0.25562 0.261043
2.683e+07 -0.0746066 0.330111 0.338437
2.684e+07 -0.0990695 0.404333 0.416293
2.685e+07 -0.126299 0.478152 0.494551
2.686e+07 -0.156267 0.551436 0.57315
2.687e+07 -0.188941 0.624053 0.652028
2.688e+07 -0.224284 0.69587 0.731121
2.689e+07 -0.262254 0.766757 0.810366
2.69e+07 -0.302804 0.836584 0.889698
2.691e+07 -0.345883 0.905222 0.969052
2.692e+07 -0.391435 0.972544 1.04836
2.693e+07 -0.439399 1.03843 1.12756
2.694e+07 -0.48971 1.10274 1.20659
2.695e+07 -0.542299 1.16537 1.28537
2.696e+07 -0.597093 1.2262 1.36385
2.697e+07 -0.654012 1.28511 1.44196
2.698e+07 -0.712977 1.34198 1.51962
2.699e+07 -0.773901 1.39671 1.59679
2.7e+07 -0.836694 1.4492 1.67339
2.701e+07 -0.901263 1.49932 1.74936
2.702e+07 -0.967513 1.547 1.82463
2.703e+07 -1.03534 1.59213 1.89916
2.704e+07 -1.10465 1.63462 1.97287
2.705e+07 -1.17532 1.67438 2.04571
2.706e+07 -1.24726 1.71133 2.11762
2.707e+07 -1.32035 1.74539 2.18854
2.708e+07 -1.39447 1.77649 2.25843
2.709e+07 -1.46952 1.80456 2.32722
2.71e+07 -1.54536 1.82954 2.39486
2.711e+07 -1.62188 1.85136 2.46131
2.712e+07 -1.69896 1.86998 2.52652
2.713e+07 -1.77647 1.88535 2.59044
2.714e+07 -1.85429 1.89741 2.65303
2.715e+07 -1.93229 1.90615 2.71425
2.716e+07 -2.01035 1.91152 2.77406
2.717e+07 -2.08833 1.9135 2.83242
2.718e+07 -2.16611 1.91207 2.8893
2.719e+07 -2.24356 1.90723 2.94467
2.72e+07 -2.32055 1.89895 2.99849
2.721e+07 -2.39695 1.88724 3.05075
2.722e+07 -2.47264 1.8721 3.1014
2.723e+07 -2.54748 1.85355 3.15044
2.724e+07 -2.62135 1.83161 3.19785
2.725e+07 -2.69412 1.80628 3.2436
2.726e+07 -2.76567 1.77761 3.28768
2.727e+07 -2.83588 1.74562 3.33007
2.728e+07 -2.90462 1.71037 3.37078
2.729e+07 -2.97178 1.67188 3.40979
2.73e+07 -3.03723 1.63023 3.44709
2.731e+07 -3.10087 1.58546 3.48269
2.732e+07 -3.16259 1.53765 3.51658
2.733e+07 -3.22226 1.48685 3.54876
2.734e+07 -3.27979 1.43315 3.57924
2.735e+07 -3.33508 1.37663 3.60803
2.736e+07 -3.38802 1.31737 3.63512
2.737e+07 -3.43852 1.25546 3.66054
2.738e+07 -3.48648 1.19101 3.6843
2.739e+07 -3.53182 1.12411 3.70639
2.74e+07 -3.57445 1.05487 3.72685
2.741e+07 -3.61429 0.983402 3.74569
2.742e+07 -3.65127 0.909821 3.76292
2.743e+07 -3.68532 0.834246 3.77856
2.744e+07 -3.71636 0.756801 3.79264
2.745e+07 -3.74435 0.677615 3.80517
2.746e+07 -3.76922 0.59682 3.81617
2.747e+07 -3.79091 0.514549 3.82567
2.748e+07 -3.80939 0.430941 3.83369
2.749e+07 -3.82462 0.346138 3.84025
2.75e+07 -3.83655 0.260285 3.84537
2.751e+07 -3.84517 0.173527 3.84908
2.752e+07 -3.85044 0.0860133 3.8514
2.753e+07 -3.85234 -0.00210388 3.85234
2.754e+07 -3.85087 -0.090672 3.85194
2.755e+07 -3.84602 -0.179537 3.85021
2.756e+07 -3.83779 -0.268541 3.84717
2.757e+07 -3.82617 -0.35753 3.84284
2.758e+07 -3.81119 -0.446344 3.83724
2.759e+07 -3.79286 -0.534826 3.83039
2.76e+07 -3.77121 -0.622816 3.82229
2.761e+07 -3.74625 -0.710157 3.81297
2.762e+07 -3.71803 -0.796691 3.80243
2.763e+07 -3.68659 -0.88226 3.79069
2.764e+07 -3.65197 -0.966706 3.77775
2.765e+07 -3.61422 -1.04988 3.76362
2.766e+07 -3.57341 -1.13161 3.7483
2.767e+07 -3.52959 -1.21177 3.73181
2.768e+07 -3.48284 -1.29019 3.71413
2.769e+07 -3.43323 -1.36672 3.69527
